ECG
-0.01
-0.0106666666666667
-0.0104
-0.0104
-0.0108
-0.0108
-0.0118
-0.0122
-0.0122
-0.0112
-0.0102
-0.0076
-0.0062
-0.0052
-0.0048
-0.0044
-0.0054
-0.0054
-0.0054
-0.0048
-0.0042
-0.0028
-0.0018
-0.0008
0
0.0008
0.0012
0.0026
0.0056
0.011
0.0184
0.0278
0.0382
0.0484
0.0572
0.0656
0.0738
0.0826
0.0938
0.108
0.124
0.1402
0.1548
0.167
0.1748
0.1782
0.1772
0.1732
0.1644
0.1518
0.1352
0.1152
0.0918
0.067
0.0426
0.0206
0.0034
-0.0098
-0.0192
-0.0266
-0.032
-0.0372
-0.0416
-0.0454
-0.0478
-0.0492
-0.0502
-0.0512
-0.0528
-0.0558
-0.0596
-0.0606
-0.0518
-0.0254
0.0284
0.1202
0.2578
0.443
0.6638
0.8864
1.0588
1.1298
1.0678
0.8768
0.6028
0.316
0.079
-0.0744
-0.1412
-0.1456
-0.1202
-0.0908
-0.0694
-0.0592
-0.0576
-0.0614
-0.0668
-0.0722
-0.0762
-0.0782
-0.0788
-0.0784
-0.0768
-0.0758
-0.0748
-0.0752
-0.0762
-0.0778
-0.0788
-0.0804
-0.08
-0.079
-0.0774
-0.0754
-0.0724
-0.0698
-0.0668
-0.0644
-0.062
-0.06
-0.0576
-0.0542
-0.0498
-0.0438
-0.036
-0.0268
-0.0176
-0.0074
0.0024
0.0116
0.0214
0.0328
0.045
0.0596
0.0758
0.0924
0.1094
0.127
0.144
0.1616
0.1786
0.1948
0.2104
0.2252
0.2378
0.2486
0.2568
0.2618
0.2632
0.2594
0.2516
0.2404
0.2256
0.208
0.1894
0.1694
0.1484
0.128
0.107
0.087
0.068
0.0504
0.0348
0.022
0.0112
0.0024
-0.0044
-0.0108
-0.0166
-0.0214
-0.0254
-0.0288
-0.0318
-0.0348
-0.0374
-0.0388
-0.0404
-0.0418
-0.0426
-0.044
-0.046
-0.0464
-0.0454
-0.044
-0.0416
-0.0386
-0.0362
-0.0348
-0.0338
-0.0338
-0.0344
-0.0354
-0.0358
-0.0358
-0.0338
-0.0312
-0.0286
-0.0266
-0.0246
-0.024
-0.0246
-0.0252
-0.0262
-0.0272
-0.0282
-0.0292
-0.0296
-0.0292
-0.0282
-0.0272
-0.0252
-0.0238
-0.0232
-0.0224
-0.021
-0.02
-0.0196
-0.0192
-0.02
-0.0224
-0.0248
-0.0266
-0.028
-0.0296
-0.0296
-0.0302
-0.0308
-0.0318
-0.0322
-0.0338
-0.0348
-0.0358
-0.0358
-0.0358
-0.0358
-0.0358
-0.0358
-0.0364
-0.037
-0.0364
-0.0358
-0.0352
-0.0346
-0.0346
-0.0346
-0.0346
-0.0342
-0.0332
-0.0316
-0.0312
-0.0302
-0.0296
-0.0302
-0.0308
-0.0302
-0.0302
-0.0298
-0.0288
-0.0272
-0.0262
-0.0252
-0.0242
-0.0232
-0.0228
-0.0224
-0.021
-0.0186
-0.0142
-0.0074
0.0018
0.0126
0.023
0.0328
0.0422
0.0506
0.0594
0.0706
0.0842
0.0992
0.1144
0.127
0.1376
0.1454
0.1508
0.1542
0.1556
0.1528
0.1456
0.132
0.1128
0.09
0.065
0.04
0.0174
-0.000600000000000002
-0.0144
-0.0246
-0.0324
-0.0392
-0.045
-0.0512
-0.0566
-0.062
-0.0658
-0.0692
-0.0718
-0.0738
-0.0752
-0.0772
-0.0788
-0.0748
-0.0592
-0.0206
0.0512
0.167
0.3316
0.5418
0.7728
0.9804
1.108
1.1124
0.978
0.7308
0.4334
0.1588
-0.0414
-0.1494
-0.1782
-0.1598
-0.1266
-0.0988
-0.0836
-0.0792
-0.0816
-0.0864
-0.0908
-0.0932
-0.0946
-0.0946
-0.0942
-0.0938
-0.0934
-0.0924
-0.0914
-0.0898
-0.0878
-0.0854
-0.0836
-0.0816
-0.0802
-0.0788
-0.0772
-0.0752
-0.0732
-0.0702
-0.0676
-0.0648
-0.0614
-0.0576
-0.0538
-0.048
-0.041
-0.0336
-0.0258
-0.017
-0.0082
0.001
0.0112
0.0224
0.0346
0.0482
0.0628
0.078
0.0938
0.11
0.1262
0.1428
0.1604
0.1784
0.1964
0.214
0.2302
0.2454
0.259
0.2702
0.2784
0.2828
0.2822
0.2764
0.2656
0.2504
0.2322
0.2112
0.1882
0.1648
0.1424
0.1206
0.1
0.0824
0.0664
0.0518
0.039
0.0278
0.0172
0.0084
0.0016
-0.0038
-0.0072
-0.0092
-0.0102
-0.0118
-0.0128
-0.0138
-0.0148
-0.0158
-0.0168
-0.0172
-0.0176
-0.0172
-0.0168
-0.0158
-0.0154
-0.0154
-0.0164
-0.0178
-0.0188
-0.0192
-0.0188
-0.0168
-0.0138
-0.0108
-0.0084
-0.0058
-0.0048
-0.0044
-0.0048
-0.0052
-0.0058
-0.0052
-0.0042
-0.0028
-0.0014
-0.0004
-0.0004
-0.0004
-0.0008
-0.0008
-0.0008
0
0.0004
0.0012
0.0016
0.0016
0.0012
0.0008
0.0004
0.0004
0.0008
0.0008
0.0008
0.0008
0.0008
0.0004
0.0004
-0.0006
-0.0026
-0.0054
-0.0084
-0.0108
-0.0122
-0.0126
-0.0126
-0.0116
-0.0106
-0.0096
-0.0092
-0.0092
-0.0102
-0.0128
-0.0154
-0.0174
-0.019
-0.0194
-0.0194
-0.0188
-0.0188
-0.0192
-0.0202
-0.0202
-0.0202
-0.0202
-0.0192
-0.0188
-0.0182
-0.0178
-0.0162
-0.0152
-0.0136
-0.0126
-0.012
-0.012
-0.0116
-0.0116
-0.0112
-0.0112
-0.0108
-0.0092
-0.0054
0.001
0.0102
0.0206
0.0302
0.039
0.0464
0.0532
0.0614
0.0728
0.088
0.105
0.1232
0.1394
0.153
0.1628
0.1692
0.1716
0.1716
0.1682
0.1604
0.1486
0.132
0.11
0.0846
0.0592
0.0354
0.0148
-0.0004
-0.0116
-0.02
-0.027
-0.0318
-0.0362
-0.0412
-0.046
-0.0508
-0.0552
-0.0582
-0.0586
-0.0592
-0.0592
-0.0572
-0.0494
-0.0284
0.0156
0.0932
0.2128
0.3794
0.5864
0.8092
1.0006
1.1086
1.094
0.9476
0.7
0.4158
0.1612
-0.0186
-0.1104
-0.1304
-0.1114
-0.082
-0.0594
-0.0492
-0.0488
-0.053
-0.0578
-0.0612
-0.0626
-0.0626
-0.0626
-0.0632
-0.0642
-0.0658
-0.0678
-0.0688
-0.0698
-0.0694
-0.0674
-0.065
-0.0626
-0.0592
-0.0558
-0.0528
-0.0494
-0.0466
-0.0432
-0.0402
-0.0368
-0.0328
-0.0278
-0.0228
-0.017
-0.0108
-0.0044
0.0024
0.0096
0.018
0.0278
0.038
0.0492
0.062
0.076
0.0912
0.1078
0.125
0.142
0.1582
0.1738
0.1904
0.208
0.2262
0.2448
0.2624
0.278
0.2912
0.3018
0.309
0.313
0.312
0.306
0.2948
0.2788
0.2592
0.2372
0.2138
0.19
0.1666
0.1436
0.1222
0.1026
0.0844
0.0682
0.054
0.0414
0.0302
0.0214
0.014
0.0078
0.0028
-0.001
-0.0034
-0.0048
-0.0058
-0.0062
-0.0068
-0.0078
-0.0092
-0.0102
-0.0112
-0.0116
-0.012
-0.012
-0.0116
-0.0102
-0.0078
-0.0054
-0.003
-0.001
-0.0004
0
0.001
0.0024
0.0044
0.0072
0.0092
0.0106
0.0116
0.0116
0.0106
0.0092
0.0078
0.0068
0.0068
0.0078
0.0098
0.0122
0.0142
0.0146
0.0146
0.014
0.0126
0.0106
0.0102
0.0098
0.0088
0.0078
0.0064
0.0044
0.002
-0.0004
-0.0018
-0.0022
-0.0026
-0.0026
-0.0016
-0.0016
-0.0016
-0.0008
0.001
0.002
0.0028
0.0032
0.0028
0.001
-0.0014
-0.0038
-0.0058
-0.0072
-0.0082
-0.0088
-0.0082
-0.0072
-0.0068
-0.0064
-0.0054
-0.0054
-0.0058
-0.0062
-0.0066
-0.0076
-0.0076
-0.0072
-0.0068
-0.0058
-0.0042
-0.0038
-0.0042
-0.0046
-0.0062
-0.0068
-0.0062
-0.0048
-0.0034
-0.001
0.0004
0.0008
0.0012
0.0022
0.0042
0.0096
0.018
0.0288
0.041
0.0528
0.0622
0.0704
0.0782
0.0874
0.1
0.1166
0.1356
0.1546
0.1718
0.186
0.1958
0.2018
0.2034
0.2014
0.195
0.1842
0.1684
0.1488
0.1254
0.1
0.0756
0.0542
0.0372
0.0244
0.0152
0.0068
0
-0.0064
-0.0126
-0.018
-0.0218
-0.0258
-0.0288
-0.0308
-0.0328
-0.0344
-0.0354
-0.0338
-0.0246
-0.000199999999999999
0.0482
0.1308
0.2562
0.4276
0.6382
0.8604
1.046
1.1428
1.1146
0.9554
0.7006
0.4158
0.1672
-0.0028
-0.0858
-0.1006
-0.078
-0.0478
-0.0258
-0.0156
-0.015
-0.02
-0.0258
-0.0308
-0.0338
-0.0354
-0.0364
-0.0374
-0.0384
-0.0398
-0.0412
-0.0422
-0.0422
-0.0406
-0.0376
-0.0336
-0.0292
-0.0248
-0.0214
-0.018
-0.0152
-0.0122
-0.0088
-0.0044
0.0004
0.0068
0.0136
0.0204
0.0272
0.034
0.0404
0.0468
0.0536
0.062
0.0714
0.0816
0.0934
0.1072
0.1218
0.1374
0.154
0.1716
0.1906
0.2102
0.2308
0.2522
0.2732
0.2928
0.3112
0.3268
0.3406
0.3522
0.3614
0.3678
0.3712
0.3702
0.3648
0.3546
0.3394
0.3208
0.2994
0.2756
0.2512
0.2268
0.2028
0.1792
0.1566
0.135
0.1156
0.098
0.0834
0.0712
0.061
0.0526
0.0458
0.0394
0.035
0.032
0.0296
0.0282
0.0282
0.0278
0.0268
0.0258
0.0248
0.023
0.0216
0.0212
0.0212
0.0212
0.0216
0.0216
0.0212
0.0212
0.0212
0.0212
0.0216
0.022
0.0224
0.0234
0.0244
0.0258
0.0278
0.0294
0.0308
0.0322
0.0332
0.0342
0.0352
0.0358
0.0368
0.0378
0.0378
0.0378
0.0372
0.0362
0.0348
0.0338
0.0322
0.0312
0.0292
0.0272
0.0248
0.0224
0.02
0.0182
0.0162
0.0142
0.0128
0.0114
0.0104
0.009
0.008
0.0074
0.0074
0.0074
0.0074
0.0068
0.0054
0.003
0.001
0
0
0.0004
0.0012
0.0016
0.002
0.002
0.0016
0.0008
-0.001
-0.0024
-0.0032
-0.0036
-0.0032
-0.0018
-0.0004
0.001
0.0024
0.0038
0.0052
0.0062
0.0066
0.0066
0.0056
0.0052
0.0048
0.0044
0.0044
0.0044
0.0038
0.0038
0.0042
0.0046
0.0062
0.0088
0.0142
0.022
0.0318
0.0424
0.053
0.0608
0.0672
0.0736
0.0816
0.0924
0.107
0.1246
0.1426
0.1596
0.1748
0.1866
0.194
0.198
0.198
0.1926
0.1822
0.167
0.146
0.1216
0.0958
0.0704
0.0474
0.0292
0.015
0.0036
-0.0046
-0.011
-0.0158
-0.0196
-0.0224
-0.0248
-0.0272
-0.0302
-0.0332
-0.0362
-0.0392
-0.0416
-0.041
-0.0332
-0.0098
0.0366
0.1168
0.2404
0.4108
0.6204
0.8426
1.0296
1.1286
1.1032
0.9474
0.695
0.4112
0.1622
-0.0106
-0.0976
-0.1162
-0.0986
-0.0722
-0.0522
-0.0424
-0.041
-0.0434
-0.0468
-0.0492
-0.0512
-0.0516
-0.0512
-0.0508
-0.0498
-0.0478
-0.0454
-0.043
-0.04
-0.0382
-0.0368
-0.0358
-0.0352
-0.0352
-0.0342
-0.0326
-0.0306
-0.0278
-0.025
-0.022
-0.0186
-0.0152
-0.0116
-0.0072
-0.0024
0.0034
0.0096
0.0168
0.0248
0.0342
0.044
0.0548
0.0656
0.0778
0.091
0.1052
0.1208
0.1388
0.1578
0.1772
0.1966
0.2158
0.2334
0.2504
0.2676
0.2848
0.3008
0.3154
0.3266
0.3338
0.3368
0.3348
0.3286
0.319
0.3054
0.2882
0.2682
0.2462
0.2222
0.1978
0.173
0.1496
0.128
0.1084
0.0904
0.0746
0.0604
0.0478
0.0372
0.0278
0.02
0.0142
0.0088
0.0044
0.002
0.0002
-0.0012
-0.0016
-0.0016
-0.003
-0.0046
-0.0056
-0.0062
-0.0068
-0.0058
-0.0042
-0.0032
-0.0026
-0.002
-0.002
-0.0026
-0.0032
-0.0038
-0.0044
-0.0044
-0.0038
-0.0032
-0.0026
-0.0016
-0.0008
0
0.0014
0.0028
0.0032
0.0028
0.002
0
-0.002
-0.0028
-0.0038
-0.0044
-0.0048
-0.0052
-0.0072
-0.0086
-0.0106
-0.0126
-0.0152
-0.0172
-0.0192
-0.0202
-0.0202
-0.0196
-0.0192
-0.0188
-0.0188
-0.0194
-0.02
-0.0194
-0.0198
-0.0202
-0.0202
-0.0202
-0.0212
-0.0216
-0.022
-0.0234
-0.0248
-0.0258
-0.0268
-0.0278
-0.0288
-0.0292
-0.0296
-0.0296
-0.0302
-0.0302
-0.0302
-0.0302
-0.0302
-0.0286
-0.0262
-0.0238
-0.021
-0.0182
-0.0164
-0.0148
-0.0138
-0.0132
-0.0132
-0.0132
-0.0142
-0.0152
-0.0168
-0.0182
-0.0196
-0.021
-0.022
-0.022
-0.021
-0.0186
-0.0138
-0.0064
0.003
0.0142
0.0254
0.0362
0.0454
0.0542
0.0626
0.072
0.0832
0.0978
0.1138
0.1308
0.1468
0.161
0.1698
0.1752
0.1756
0.1732
0.1658
0.1552
0.1396
0.1196
0.0958
0.071
0.0474
0.027
0.0114
-0.0014
-0.0112
-0.02
-0.028
-0.0352
-0.04
-0.044
-0.0464
-0.0478
-0.0488
-0.0504
-0.0518
-0.0538
-0.0562
-0.0552
-0.0454
-0.019
0.0338
0.1232
0.2574
0.4382
0.6546
0.8734
1.0452
1.1184
1.0626
0.8794
0.6128
0.3306
0.0952
-0.0582
-0.1262
-0.132
-0.108
-0.0806
-0.062
-0.0536
-0.0532
-0.0566
-0.0594
-0.0612
-0.0626
-0.063
-0.063
-0.063
-0.0626
-0.0618
-0.061
-0.0596
-0.0572
-0.0548
-0.0522
-0.0496
-0.0476
-0.0466
-0.046
-0.0452
-0.0438
-0.0424
-0.04
-0.0372
-0.0336
-0.0302
-0.0254
-0.0206
-0.0146
-0.0088
-0.0024
0.0036
0.01
0.0172
0.025
0.0348
0.046
0.0586
0.0724
0.0876
0.1036
0.1216
0.1412
0.1612
0.1812
0.2008
0.2194
0.237
0.254
0.2706
0.2858
0.2994
0.3106
0.318
0.3204
0.3184
0.3116
0.2994
0.2828
0.2632
0.2412
0.2172
0.1934
0.169
0.1452
0.1218
0.1
0.0794
0.0622
0.0466
0.0334
0.0216
0.0118
0.003
-0.0034
-0.0084
-0.0114
-0.0138
-0.0158
-0.0178
-0.0196
-0.0214
-0.0228
-0.0236
-0.0236
-0.0232
-0.0228
-0.0228
-0.0234
-0.0244
-0.0254
-0.0264
-0.0264
-0.0254
-0.0234
-0.021
-0.018
-0.0156
-0.0126
-0.0096
-0.0076
-0.0056
-0.0042
-0.0038
-0.0038
-0.0028
-0.0028
-0.0018
-0.0012
-0.0012
-0.0016
-0.0012
-0.0008
0.0006
0.002
0.0034
0.0044
0.0044
0.0034
0.0024
0.0014
0
-0.0008
-0.0018
-0.0028
-0.0038
-0.0044
-0.0054
-0.0064
-0.0078
-0.0092
-0.0106
-0.0116
-0.0126
-0.0126
-0.0126
-0.0126
-0.0132
-0.0136
-0.0152
-0.0168
-0.0188
-0.0202
-0.0216
-0.022
-0.022
-0.021
-0.02
-0.0186
-0.0172
-0.0166
-0.0166
-0.0166
-0.0166
-0.0176
-0.0182
-0.0188
-0.0194
-0.02
-0.02
-0.02
-0.0194
-0.0194
-0.0194
-0.0198
-0.0202
-0.0216
-0.022
-0.022
-0.021
-0.02
-0.0182
-0.0162
-0.0142
-0.0128
-0.0108
-0.0078
-0.002
0.0064
0.0182
0.0308
0.0434
0.0542
0.0634
0.0716
0.0804
0.0922
0.1064
0.122
0.1376
0.1532
0.166
0.1752
0.1806
0.1816
0.1772
0.1684
0.1552
0.1382
0.1182
0.0968
0.0732
0.0502
0.0296
0.0116
-0.003
-0.0142
-0.0234
-0.0312
-0.037
-0.042
-0.0454
-0.0484
-0.0514
-0.0548
-0.0576
-0.061
-0.0638
-0.0646
-0.0618
-0.0502
-0.0214
0.0332
0.123
0.2574
0.4376
0.6526
0.8694
1.0384
1.1092
1.0506
0.8654
0.5988
0.317
0.0826
-0.0698
-0.1372
-0.1426
-0.1172
-0.088
-0.066
-0.0552
-0.0528
-0.0548
-0.0582
-0.062
-0.0644
-0.0668
-0.0688
-0.0702
-0.0712
-0.0722
-0.0722
-0.0716
-0.0706
-0.0696
-0.0686
-0.0676
-0.0666
-0.0656
-0.0642
-0.0618
-0.0594
-0.057
-0.0546
-0.0516
-0.0482
-0.0442
-0.0404
-0.0356
-0.0308
-0.0254
-0.019
-0.0112
-0.0018
0.009
0.0198
0.031
0.0422
0.0538
0.066
0.08
0.096
0.1142
0.1332
0.1536
0.1746
0.1956
0.216
0.2362
0.2548
0.272
0.2862
0.299
0.3092
0.3166
0.3204
0.321
0.316
0.3066
0.2924
0.2734
0.2508
0.227
0.2016
0.1766
0.1526
0.1296
0.1086
0.0892
0.0718
0.0562
0.0432
0.0314
0.0216
0.0132
0.0064
0.001
-0.0038
-0.0082
-0.0122
-0.0166
-0.0206
-0.0236
-0.025
-0.0254
-0.0244
-0.0234
-0.0224
-0.0224
-0.0224
-0.0228
-0.0232
-0.0232
-0.0228
-0.0218
-0.0194
-0.017
-0.015
-0.0126
-0.0116
-0.0112
-0.0108
-0.0098
-0.0092
-0.0078
-0.0068
-0.0058
-0.0054
-0.0044
-0.0038
-0.0038
-0.0038
-0.0048
-0.0064
-0.0084
-0.0094
-0.0104
-0.0104
-0.0104
-0.0094
-0.0084
-0.0074
-0.0064
-0.0058
-0.0064
-0.0074
-0.0088
-0.0112
-0.0138
-0.0162
-0.0186
-0.0206
-0.0216
-0.022
-0.022
-0.022
-0.0224
-0.0228
-0.0228
-0.0232
-0.0236
-0.0236
-0.0242
-0.0246
-0.0246
-0.0242
-0.0238
-0.0228
-0.0224
-0.021
-0.0206
-0.0196
-0.0186
-0.0172
-0.0172
-0.0172
-0.0182
-0.0196
-0.0214
-0.0228
-0.0236
-0.0246
-0.0252
-0.0252
-0.0258
-0.0264
-0.0264
-0.0264
-0.0264
-0.0264
-0.0264
-0.0258
-0.0252
-0.0248
-0.0242
-0.0236
-0.0236
-0.0236
-0.0232
-0.0214
-0.0176
-0.0114
-0.0022
0.0086
0.0208
0.0326
0.0434
0.0526
0.0614
0.0702
0.0814
0.095
0.1108
0.1264
0.1412
0.1534
0.1622
0.1664
0.168
0.1654
0.1586
0.148
0.133
0.1128
0.0894
0.065
0.0406
0.019
0.002
-0.0102
-0.019
-0.025
-0.0288
-0.0312
-0.0332
-0.0358
-0.0386
-0.041
-0.044
-0.0474
-0.0512
-0.0542
-0.0562
-0.0532
-0.0394
-0.0062
0.0554
0.1554
0.301
0.4914
0.7126
0.9264
1.0808
1.128
1.0444
0.8398
0.5648
0.2888
0.0696
-0.0652
-0.1184
-0.1158
-0.0898
-0.0634
-0.0462
-0.0398
-0.0404
-0.0444
-0.0488
-0.0528
-0.0554
-0.0568
-0.0568
-0.0564
-0.0554
-0.0538
-0.0528
-0.0512
-0.0492
-0.0472
-0.0444
-0.0416
-0.0392
-0.0372
-0.0352
-0.0336
-0.0316
-0.0302
-0.0278
-0.0244
-0.0216
-0.0176
-0.0132
-0.0084
-0.0026
0.0048
0.0126
0.0224
0.0322
0.042
0.0522
0.0628
0.074
0.0872
0.1024
0.1186
0.1362
0.1548
0.1744
0.1944
0.2148
0.2354
0.2554
0.275
0.293
0.3102
0.3248
0.338
0.3476
0.354
0.356
0.354
0.3472
0.336
0.3208
0.3022
0.2808
0.2574
0.233
0.2086
0.1846
0.1622
0.1406
0.121
0.103
0.087
0.0722
0.0596
0.0484
0.039
0.0306
0.0238
0.0188
0.015
0.0122
0.0108
0.0104
0.01
0.01
0.0094
0.0094
0.0088
0.0082
0.0082
0.0098
0.0112
0.0146
0.0186
0.022
0.0248
0.0268
0.0274
0.0274
0.0268
0.0258
0.0252
0.0252
0.0252
0.0258
0.0258
0.0258
0.0258
0.0262
0.0272
0.0288
0.0294
0.0288
0.027
0.024
0.021
0.019
0.0176
0.0176
0.0176
0.0172
0.0168
0.0164
0.0148
0.0128
0.0108
0.0088
0.0058
0.003
0.0002
-0.0022
-0.0046
-0.0056
-0.0062
-0.0058
-0.0058
-0.0058
-0.0068
-0.0082
-0.0092
-0.0092
-0.0098
-0.0098
-0.0094
-0.0098
-0.0108
-0.0112
-0.0116
-0.012
-0.012
-0.0116
-0.0112
-0.0108
-0.0104
-0.0094
-0.0084
-0.0078
-0.0072
-0.0072
-0.0082
-0.0102
-0.0112
-0.0118
-0.0112
-0.0108
-0.0098
-0.0094
-0.0104
-0.012
-0.0124
-0.0128
-0.0122
-0.0102
-0.0082
-0.0072
-0.0062
-0.0068
-0.0078
-0.0078
-0.0074
-0.007
-0.0054
-0.0034
-0.001
0.004
0.0118
0.0214
0.0326
0.0438
0.054
0.0628
0.0706
0.0794
0.0908
0.1044
0.12
0.1366
0.1528
0.1668
0.178
0.1854
0.1884
0.1868
0.181
0.1704
0.1548
0.1358
0.113
0.0882
0.0642
0.0436
0.026
0.0122
0.0014
-0.0074
-0.0152
-0.0216
-0.0264
-0.0304
-0.0334
-0.0354
-0.0364
-0.0374
-0.0384
-0.0402
-0.0426
-0.042
-0.0318
-0.0038
0.0514
0.1448
0.283
0.4676
0.6858
0.903
1.069
1.1344
1.0686
0.8772
0.6066
0.3252
0.0942
-0.0534
-0.1154
-0.1164
-0.0894
-0.0606
-0.0406
-0.0328
-0.0332
-0.0376
-0.0424
-0.0462
-0.0482
-0.0492
-0.0492
-0.0482
-0.0478
-0.0478
-0.0472
-0.0472
-0.0472
-0.0462
-0.0448
-0.0434
-0.0416
-0.0388
-0.0358
-0.0318
-0.0284
-0.025
-0.022
-0.0186
-0.0152
-0.0112
-0.0072
-0.0028
0.001
0.005
0.0102
0.017
0.0252
0.0364
0.049
0.0632
0.0784
0.0946
0.1108
0.127
0.1432
0.1608
0.1788
0.1978
0.2178
0.2382
0.2576
0.2768
0.295
0.3116
0.3274
0.3412
0.3524
0.3602
0.3646
0.364
0.3596
0.3508
0.3376
0.3204
0.3
0.2766
0.2512
0.2252
0.1998
0.1758
0.1538
0.1338
0.1158
0.0992
0.0846
0.0714
0.0596
0.0498
0.0416
0.0346
0.0288
0.0244
0.0206
0.0172
0.0138
0.0118
0.0104
0.0098
0.0108
0.0128
0.0148
0.0168
0.0174
0.0174
0.0174
0.0174
0.0178
0.0192
0.0206
0.0212
0.0212
0.0202
0.0188
0.0174
0.0158
0.0148
0.0144
0.0148
0.0152
0.0158
0.0158
0.0158
0.0148
0.0128
0.0108
0.0082
0.0052
0.0024
0.0006
0
0
0
-0.0006
-0.0022
-0.005
-0.0078
-0.0098
-0.0102
-0.0096
-0.0092
-0.0092
-0.0096
-0.0112
-0.0128
-0.0138
-0.0144
-0.015
-0.0144
-0.0134
-0.0118
-0.0108
-0.0098
-0.0088
-0.0082
-0.0078
-0.0062
-0.0046
-0.0042
-0.0038
-0.0042
-0.0062
-0.0082
-0.0092
-0.0102
-0.0102
-0.0088
-0.0074
-0.0064
-0.0054
-0.0054
-0.0064
-0.0078
-0.0088
-0.0098
-0.0104
-0.0104
-0.0104
-0.0104
-0.0114
-0.0124
-0.0134
-0.0134
-0.0144
-0.0138
-0.013
-0.012
