ECG
-0.015
-0.0156666666666667
-0.0148
-0.0138
-0.0114
-0.0098
-0.0088
-0.0088
-0.0092
-0.0106
-0.0122
-0.0132
-0.0142
-0.0158
-0.0174
-0.0184
-0.0198
-0.0212
-0.023
-0.0254
-0.0278
-0.0302
-0.0322
-0.0338
-0.0348
-0.0362
-0.0372
-0.0392
-0.041
-0.0428
-0.0442
-0.0456
-0.0466
-0.0466
-0.0466
-0.0466
-0.0466
-0.0476
-0.0496
-0.0526
-0.0556
-0.0586
-0.059
-0.0586
-0.0566
-0.0546
-0.0526
-0.0516
-0.0516
-0.0526
-0.0542
-0.0558
-0.0574
-0.0588
-0.0598
-0.0598
-0.0592
-0.0586
-0.0576
-0.0576
-0.0584
-0.0604
-0.0618
-0.0632
-0.0636
-0.0642
-0.0636
-0.0632
-0.0624
-0.061
-0.0586
-0.0562
-0.0542
-0.0526
-0.0512
-0.0488
-0.0444
-0.0376
-0.0284
-0.0176
-0.0072
0.001
0.0084
0.0158
0.0246
0.0368
0.0534
0.0714
0.089
0.105
0.1182
0.127
0.1318
0.1322
0.1284
0.1196
0.106
0.0884
0.068
0.044
0.0196
-0.0034
-0.0228
-0.0386
-0.0498
-0.0586
-0.0654
-0.0722
-0.0784
-0.0838
-0.0888
-0.0932
-0.0962
-0.0988
-0.1002
-0.102
-0.104
-0.104
-0.096
-0.074
-0.0262
0.0564
0.1834
0.3576
0.571
0.7932
0.9758
1.0646
1.0232
0.8478
0.5772
0.2808
0.0264
-0.1426
-0.2182
-0.222
-0.1898
-0.1512
-0.1238
-0.1112
-0.1088
-0.1118
-0.1162
-0.1188
-0.1198
-0.1198
-0.1192
-0.1188
-0.1182
-0.1176
-0.1172
-0.1162
-0.1142
-0.1122
-0.1098
-0.1074
-0.1056
-0.1036
-0.1018
-0.0994
-0.0964
-0.0924
-0.088
-0.0826
-0.0762
-0.0694
-0.063
-0.0566
-0.0508
-0.0454
-0.0404
-0.0346
-0.0284
-0.0214
-0.0136
-0.0048
0.0044
0.0148
0.0254
0.0376
0.0512
0.067
0.0836
0.1022
0.1202
0.1378
0.1548
0.1724
0.19
0.2086
0.2272
0.2448
0.2604
0.2746
0.2858
0.295
0.3018
0.3062
0.3062
0.3014
0.2922
0.279
0.2618
0.2422
0.2202
0.1962
0.1708
0.1454
0.12
0.0966
0.0752
0.0562
0.0396
0.0254
0.0132
0.0028
-0.006
-0.0138
-0.021
-0.0274
-0.0332
-0.038
-0.0424
-0.0454
-0.0478
-0.0488
-0.0494
-0.0494
-0.0494
-0.049
-0.0484
-0.0474
-0.0464
-0.0454
-0.0444
-0.044
-0.0436
-0.0426
-0.0412
-0.0392
-0.0368
-0.0348
-0.0328
-0.0308
-0.0288
-0.0272
-0.0248
-0.022
-0.02
-0.0182
-0.0168
-0.0162
-0.0172
-0.0178
-0.0192
-0.0198
-0.0204
-0.0204
-0.0208
-0.0212
-0.0226
-0.0244
-0.0268
-0.0288
-0.0304
-0.0314
-0.033
-0.034
-0.0354
-0.0368
-0.0378
-0.0378
-0.0382
-0.0388
-0.0394
-0.0404
-0.0418
-0.0428
-0.0442
-0.0456
-0.047
-0.048
-0.049
-0.0484
-0.0478
-0.0478
-0.0478
-0.0478
-0.0484
-0.049
-0.0484
-0.0474
-0.0468
-0.0472
-0.0486
-0.0506
-0.053
-0.0546
-0.0546
-0.0532
-0.0518
-0.0504
-0.0494
-0.0484
-0.0484
-0.0484
-0.0484
-0.0484
-0.0484
-0.0478
-0.0472
-0.0458
-0.0438
-0.042
-0.0402
-0.0384
-0.0374
-0.0364
-0.0354
-0.0338
-0.0312
-0.0268
-0.0204
-0.011
0.0002
0.0124
0.0242
0.0344
0.0422
0.0494
0.0576
0.0688
0.0834
0.101
0.1186
0.1348
0.148
0.1572
0.161
0.1606
0.1556
0.1454
0.1304
0.1108
0.0878
0.063
0.0376
0.0146
-0.0038
-0.018
-0.0292
-0.039
-0.0488
-0.0576
-0.0658
-0.0732
-0.078
-0.0804
-0.082
-0.0826
-0.0822
-0.0814
-0.0804
-0.076
-0.0638
-0.0358
0.0166
0.1036
0.2332
0.4086
0.619
0.8314
0.9964
1.0632
1.0012
0.8126
0.543
0.2612
0.0288
-0.1186
-0.179
-0.177
-0.1468
-0.1142
-0.0924
-0.0822
-0.0802
-0.082
-0.0838
-0.0846
-0.0856
-0.0862
-0.0868
-0.0874
-0.0874
-0.086
-0.0846
-0.0822
-0.0798
-0.0774
-0.0754
-0.0728
-0.0718
-0.0708
-0.0704
-0.0708
-0.0714
-0.0704
-0.0684
-0.064
-0.0578
-0.05
-0.0422
-0.0348
-0.0294
-0.024
-0.0196
-0.0138
-0.006
0.0038
0.0146
0.0268
0.0396
0.0522
0.0648
0.078
0.0918
0.106
0.1216
0.1388
0.1574
0.1774
0.1974
0.218
0.2384
0.2584
0.2774
0.2954
0.312
0.3272
0.3398
0.349
0.3554
0.3574
0.3544
0.3466
0.334
0.3164
0.2948
0.271
0.2452
0.2192
0.1944
0.1706
0.1476
0.1266
0.1072
0.089
0.0728
0.0586
0.0454
0.0336
0.0228
0.0136
0.0048
-0.002
-0.0074
-0.0118
-0.0158
-0.0192
-0.0222
-0.024
-0.0248
-0.0244
-0.023
-0.021
-0.0192
-0.0168
-0.0148
-0.0118
-0.0088
-0.0068
-0.0048
-0.0032
-0.0022
-0.0014
0.001
0.0038
0.0072
0.0102
0.0132
0.0152
0.0162
0.0172
0.0182
0.0192
0.0202
0.0208
0.0212
0.0212
0.0202
0.0192
0.0182
0.0162
0.0146
0.0132
0.0118
0.0108
0.0094
0.0074
0.0054
0.003
0.0006
-0.0014
-0.0028
-0.0042
-0.0052
-0.0062
-0.0066
-0.0076
-0.0082
-0.0092
-0.0098
-0.0108
-0.0118
-0.0132
-0.0148
-0.0168
-0.0184
-0.0194
-0.02
-0.0204
-0.0208
-0.0212
-0.0216
-0.0224
-0.0234
-0.0248
-0.0262
-0.0276
-0.0282
-0.0282
-0.0278
-0.0274
-0.0274
-0.0274
-0.0268
-0.0268
-0.0262
-0.0252
-0.0246
-0.0252
-0.0252
-0.0258
-0.0264
-0.027
-0.027
-0.027
-0.027
-0.027
-0.027
-0.027
-0.0274
-0.0278
-0.0288
-0.0292
-0.0292
-0.0278
-0.0244
-0.0184
-0.0102
0
0.0108
0.021
0.0306
0.0394
0.0488
0.06
0.0746
0.0918
0.1094
0.126
0.1406
0.1518
0.1596
0.164
0.165
0.1626
0.1548
0.1416
0.1236
0.1006
0.0748
0.0494
0.026
0.0064
-0.0088
-0.0206
-0.0298
-0.0372
-0.0436
-0.0494
-0.0548
-0.0602
-0.065
-0.0684
-0.0708
-0.0728
-0.0748
-0.0764
-0.0744
-0.0632
-0.0354
0.0188
0.1088
0.2416
0.4194
0.6304
0.8414
1.0026
1.0646
0.9966
0.8038
0.5318
0.2494
0.0184
-0.127
-0.1856
-0.1822
-0.151
-0.1188
-0.0974
-0.0882
-0.0872
-0.09
-0.0928
-0.0938
-0.0932
-0.0912
-0.0884
-0.0856
-0.0832
-0.0814
-0.081
-0.0814
-0.0822
-0.0826
-0.082
-0.0804
-0.078
-0.0752
-0.0722
-0.0698
-0.0674
-0.0644
-0.0604
-0.056
-0.0512
-0.0464
-0.0416
-0.0372
-0.0334
-0.0294
-0.025
-0.0206
-0.0148
-0.0064
0.0034
0.0138
0.025
0.0362
0.0468
0.058
0.0706
0.0848
0.1004
0.1176
0.1356
0.1532
0.1714
0.19
0.2086
0.2272
0.2468
0.2648
0.2814
0.2954
0.3076
0.3164
0.3228
0.3258
0.3254
0.32
0.3096
0.2948
0.2766
0.2552
0.2324
0.209
0.1852
0.1614
0.1378
0.1152
0.0948
0.0772
0.061
0.0474
0.0348
0.023
0.0122
0.004
-0.0024
-0.0074
-0.0114
-0.0148
-0.0178
-0.0202
-0.0216
-0.022
-0.022
-0.0216
-0.0216
-0.0216
-0.0212
-0.0202
-0.0196
-0.0182
-0.0162
-0.0152
-0.0148
-0.0134
-0.0118
-0.0098
-0.0064
-0.002
0.001
0.0024
0.0028
0.0028
0.0028
0.0038
0.0062
0.0082
0.0098
0.0098
0.0088
0.0064
0.0044
0.002
-0.0004
-0.0028
-0.0042
-0.0062
-0.0078
-0.0092
-0.0112
-0.0132
-0.0152
-0.0176
-0.0196
-0.0202
-0.0202
-0.0202
-0.0202
-0.0206
-0.0214
-0.0228
-0.0232
-0.0232
-0.0232
-0.0232
-0.0238
-0.0252
-0.0272
-0.0288
-0.0308
-0.0328
-0.0344
-0.0348
-0.0342
-0.0322
-0.0296
-0.028
-0.0266
-0.0256
-0.0262
-0.0272
-0.0288
-0.0312
-0.0342
-0.0366
-0.0382
-0.0376
-0.0362
-0.0348
-0.0334
-0.0324
-0.033
-0.0334
-0.0338
-0.0338
-0.0338
-0.0322
-0.0308
-0.0294
-0.0278
-0.0262
-0.0252
-0.0252
-0.0242
-0.0224
-0.018
-0.0112
-0.0018
0.008
0.0168
0.0246
0.0318
0.039
0.0478
0.0606
0.0762
0.0928
0.1094
0.125
0.1382
0.1474
0.1534
0.1558
0.1548
0.1488
0.138
0.1208
0.099
0.0722
0.0444
0.0182
-0.0028
-0.019
-0.0288
-0.0356
-0.04
-0.0438
-0.0468
-0.0492
-0.0516
-0.0542
-0.0566
-0.0594
-0.0638
-0.0688
-0.0732
-0.0742
-0.066
-0.0402
0.0132
0.1052
0.2448
0.4348
0.662
0.893
1.0736
1.1494
1.085
0.8842
0.593
0.2848
0.0288
-0.1344
-0.2014
-0.198
-0.1604
-0.1198
-0.0914
-0.0782
-0.0752
-0.0786
-0.0826
-0.0856
-0.087
-0.0874
-0.0868
-0.0858
-0.0848
-0.0828
-0.0814
-0.08
-0.0796
-0.0792
-0.0792
-0.0782
-0.0768
-0.0742
-0.0712
-0.0678
-0.065
-0.062
-0.0596
-0.0572
-0.0542
-0.0512
-0.0478
-0.043
-0.037
-0.0312
-0.0238
-0.0156
-0.0068
0.002
0.0118
0.0216
0.0314
0.0412
0.0524
0.0646
0.0776
0.0918
0.107
0.1236
0.1406
0.1588
0.1774
0.1974
0.2164
0.2346
0.2516
0.2676
0.2818
0.295
0.3072
0.3184
0.3272
0.332
0.332
0.327
0.3158
0.3002
0.2816
0.2606
0.2376
0.2142
0.1908
0.1674
0.145
0.1232
0.1022
0.0826
0.0656
0.0504
0.0372
0.0264
0.0168
0.008
-0.0004
-0.0074
-0.0132
-0.0172
-0.0202
-0.0216
-0.022
-0.022
-0.0224
-0.0228
-0.0228
-0.0224
-0.0214
-0.019
-0.0162
-0.0138
-0.0108
-0.0084
-0.0064
-0.0048
-0.0032
-0.0026
-0.0016
-0.0012
0.0002
0.002
0.0044
0.0068
0.0098
0.0122
0.0148
0.0162
0.0178
0.0182
0.0178
0.0162
0.0148
0.0128
0.0114
0.0108
0.0104
0.0104
0.0098
0.0092
0.0082
0.0076
0.0066
0.0062
0.0048
0.0024
-0.0004
-0.0034
-0.0064
-0.0088
-0.0108
-0.0128
-0.0142
-0.0152
-0.0152
-0.0146
-0.0132
-0.0118
-0.0112
-0.0118
-0.0124
-0.0134
-0.0138
-0.0138
-0.0132
-0.0126
-0.012
-0.012
-0.012
-0.012
-0.0116
-0.0116
-0.0116
-0.0112
-0.0112
-0.0116
-0.0116
-0.0116
-0.012
-0.0116
-0.0116
-0.0116
-0.0116
-0.0112
-0.0116
-0.0122
-0.0132
-0.0148
-0.0168
-0.0184
-0.0188
-0.0188
-0.0172
-0.0156
-0.014
-0.013
-0.012
-0.0116
-0.0088
-0.0034
0.0044
0.0142
0.0254
0.0352
0.0434
0.0516
0.0612
0.0726
0.0868
0.104
0.1212
0.1364
0.1504
0.1626
0.1718
0.1786
0.183
0.182
0.1762
0.1644
0.1468
0.1234
0.0976
0.0708
0.0464
0.0264
0.0118
0.001
-0.0074
-0.0146
-0.0214
-0.0278
-0.034
-0.0398
-0.0448
-0.0492
-0.0532
-0.0566
-0.06
-0.0624
-0.061
-0.0496
-0.0208
0.0348
0.1262
0.262
0.4426
0.6584
0.8762
1.0466
1.117
1.0554
0.8634
0.586
0.293
0.0506
-0.1036
-0.167
-0.1636
-0.1294
-0.0932
-0.0684
-0.0568
-0.0548
-0.0572
-0.0606
-0.0634
-0.0648
-0.0658
-0.0664
-0.0658
-0.0648
-0.0638
-0.0628
-0.0628
-0.0628
-0.0624
-0.061
-0.059
-0.0566
-0.0552
-0.0538
-0.0532
-0.0522
-0.0502
-0.0474
-0.044
-0.0406
-0.0372
-0.0332
-0.0282
-0.0232
-0.0174
-0.0116
-0.0054
0.0004
0.0076
0.016
0.0248
0.0346
0.0454
0.0572
0.0694
0.0826
0.0964
0.112
0.1276
0.1442
0.1622
0.1816
0.2006
0.2196
0.2386
0.2572
0.2738
0.289
0.3032
0.3144
0.3228
0.3288
0.3328
0.3334
0.3304
0.323
0.3116
0.2958
0.2762
0.2538
0.2294
0.204
0.1778
0.1514
0.1266
0.104
0.0836
0.066
0.0508
0.0386
0.0284
0.02
0.013
0.0078
0.0018
-0.003
-0.0068
-0.0102
-0.0128
-0.0142
-0.0158
-0.0178
-0.0196
-0.0214
-0.0224
-0.0224
-0.021
-0.0196
-0.0182
-0.0172
-0.0166
-0.017
-0.0166
-0.0152
-0.0128
-0.0094
-0.0056
-0.0022
0.0008
0.0038
0.0058
0.0078
0.0098
0.0102
0.0092
0.0082
0.0068
0.0054
0.005
0.0044
0.0034
0.002
0.001
0.0004
0.0014
0.0028
0.0046
0.0046
0.0022
-0.0026
-0.008
-0.0138
-0.0178
-0.0202
-0.0212
-0.0212
-0.0202
-0.0196
-0.0182
-0.0172
-0.0172
-0.0178
-0.0184
-0.0194
-0.02
-0.02
-0.02
-0.0208
-0.0222
-0.0246
-0.028
-0.0324
-0.0354
-0.0364
-0.0348
-0.0308
-0.0258
-0.022
-0.021
-0.0216
-0.024
-0.026
-0.0268
-0.0262
-0.0256
-0.0246
-0.0246
-0.0256
-0.0262
-0.0268
-0.0274
-0.0278
-0.0284
-0.0304
-0.0328
-0.0352
-0.0368
-0.0368
-0.0348
-0.0318
-0.0284
-0.025
-0.022
-0.0186
-0.0138
-0.0064
0.003
0.0132
0.0226
0.031
0.0368
0.0416
0.048
0.0568
0.069
0.0852
0.1034
0.121
0.1376
0.1502
0.1584
0.1622
0.1622
0.1578
0.1496
0.137
0.1194
0.097
0.0716
0.0452
0.0206
0.0006
-0.0152
-0.027
-0.0354
-0.0422
-0.048
-0.0524
-0.0554
-0.0578
-0.0596
-0.0606
-0.0614
-0.0638
-0.0678
-0.0722
-0.0742
-0.0656
-0.0362
0.025
0.1284
0.2814
0.4818
0.7132
0.9378
1.1004
1.1502
1.0584
0.8348
0.5316
0.226
-0.0182
-0.1652
-0.2166
-0.201
-0.158
-0.116
-0.0882
-0.076
-0.0746
-0.0776
-0.0806
-0.083
-0.0834
-0.083
-0.082
-0.082
-0.0826
-0.0836
-0.0844
-0.0864
-0.0874
-0.0868
-0.0854
-0.083
-0.079
-0.0746
-0.0698
-0.0644
-0.0596
-0.0544
-0.0486
-0.0432
-0.0392
-0.0358
-0.0332
-0.0306
-0.0278
-0.0234
-0.018
-0.0112
-0.0034
0.0054
0.0146
0.024
0.0322
0.0404
0.0498
0.06
0.0726
0.0878
0.104
0.1206
0.1382
0.1562
0.1742
0.1922
0.2098
0.226
0.2408
0.2546
0.2678
0.28
0.2908
0.299
0.3048
0.3082
0.3092
0.3062
0.2994
0.2882
0.2726
0.253
0.232
0.21
0.188
0.1656
0.1426
0.1202
0.0988
0.0788
0.0612
0.0462
0.033
0.0216
0.0124
0.0046
-0.0008
-0.0052
-0.009
-0.0116
-0.0132
-0.0142
-0.0148
-0.0148
-0.0152
-0.0162
-0.0172
-0.0176
-0.0172
-0.0162
-0.0136
-0.0106
-0.0076
-0.0042
-0.0004
0.004
0.0078
0.0122
0.0158
0.0188
0.0202
0.0216
0.0234
0.0262
0.0286
0.03
0.03
0.0296
0.0286
0.0272
0.0268
0.0264
0.024
0.0212
0.0188
0.0164
0.0154
0.0158
0.0162
0.0162
0.0156
0.0146
0.0136
0.0126
0.0126
0.0126
0.0126
0.0116
0.0102
0.0076
0.0052
0.0024
0
-0.001
-0.001
-0.0006
0.0008
0.0028
0.0038
0.0044
0.0044
0.0038
0.0032
0.0022
0.0008
-0.0006
-0.002
-0.0028
-0.0028
-0.002
-0.0006
0.0008
0.0016
0.002
0.0016
0.0008
0
-0.0008
-0.0012
-0.0012
-0.0008
-0.0004
0
0
-0.001
-0.0024
-0.0044
-0.0064
-0.0078
-0.0072
-0.0058
-0.0038
-0.0014
0.0014
0.0048
0.0092
0.016
0.0248
0.0346
0.0442
0.0534
0.0612
0.0686
0.0764
0.0858
0.098
0.1128
0.129
0.1446
0.1592
0.1714
0.1806
0.1858
0.1874
0.1836
0.1754
0.1632
0.1466
0.1256
0.1016
0.0752
0.0484
0.024
0.0044
-0.0098
-0.02
-0.0274
-0.0328
-0.0372
-0.0406
-0.0426
-0.0446
-0.047
-0.05
-0.0538
-0.0582
-0.0606
-0.0566
-0.0414
-0.0054
0.062
0.1724
0.332
0.5396
0.7756
0.9978
1.1516
1.1864
1.0794
0.8458
0.544
0.246
0.014
-0.1236
-0.1714
-0.1606
-0.1268
-0.095
-0.076
-0.0696
-0.0716
-0.076
-0.08
-0.081
-0.0816
-0.0806
-0.0802
-0.0798
-0.0804
-0.0798
-0.0788
-0.0778
-0.0772
-0.0766
-0.0766
-0.0776
-0.0776
-0.0772
-0.0762
-0.0742
-0.0722
-0.0702
-0.0676
-0.0648
-0.062
-0.0576
-0.0528
-0.0476
-0.0416
-0.0342
-0.0264
-0.0176
-0.0088
0
0.0078
0.0156
0.024
0.0344
0.0466
0.0608
0.0764
0.093
0.11
0.1276
0.1452
0.1638
0.1828
0.2028
0.2228
0.2428
0.2618
0.28
0.2966
0.3116
0.3248
0.3346
0.3404
0.3414
0.3376
0.3278
0.3136
0.2964
0.2768
0.2548
0.2324
0.2094
0.1856
0.1612
0.1368
0.1128
0.0898
0.0682
0.0492
0.0336
0.0204
0.0098
0.0016
-0.0048
-0.0108
-0.0162
-0.0212
-0.0256
-0.03
-0.0334
-0.0358
-0.0368
-0.0374
-0.0368
-0.0358
-0.0338
-0.0318
-0.0292
-0.0264
-0.023
-0.0202
-0.0168
-0.0134
-0.0108
-0.0088
-0.0062
-0.0038
-0.0004
0.0034
0.0078
0.0116
0.0146
0.0166
0.0186
0.02
0.0224
0.0248
0.0266
0.0276
0.0276
0.0266
0.0256
0.0246
0.0232
0.0208
0.0174
0.0136
0.0092
0.0052
0.0018
-5.42101086242752e-20
-0.002
-0.0034
-0.0044
-0.0054
-0.0074
-0.0088
-0.0108
-0.0128
-0.0138
-0.0138
-0.0134
-0.0114
-0.0094
-0.0074
-0.007
-0.008
-0.01
-0.012
-0.014
-0.0144
-0.0144
-0.0144
-0.0148
-0.0158
-0.0178
-0.0192
-0.021
-0.022
-0.0224
-0.0228
-0.0238
-0.0248
-0.0262
-0.0282
-0.0298
-0.0308
-0.0324
-0.034
-0.0344
-0.0348
-0.0348
-0.0338
-0.0328
-0.0328
-0.0328
-0.0342
-0.0362
-0.0376
-0.0386
-0.0396
-0.0382
-0.0338
-0.027
-0.0172
-0.0054
0.0058
0.0156
0.0234
0.0312
0.0408
0.0536
0.0702
0.0888
0.1064
0.1216
0.1338
0.1426
0.148
0.15
0.148
0.1432
0.1334
0.1188
0.0996
0.0776
0.0526
0.0272
0.0046
-0.013
-0.0256
-0.0344
-0.0396
-0.043
-0.0464
-0.0504
-0.0542
-0.0586
-0.0624
-0.0658
-0.0692
-0.0728
-0.0754
-0.0754
-0.0656
-0.0378
0.018
0.1118
0.2528
0.4418
0.667
0.8936
1.0704
1.1438
1.0784
0.8772
0.587
0.2808
0.0268
-0.1348
-0.2002
-0.1958
-0.1582
-0.1176
-0.0884
-0.0742
-0.0702
-0.073
-0.0784
-0.0838
-0.0878
-0.0908
-0.0918
-0.0918
-0.0912
-0.0902
-0.0882
-0.0858
-0.0824
-0.0786
-0.0746
-0.0722
-0.0708
-0.0704
-0.0704
-0.0714
-0.0708
-0.0702
-0.0686
-0.0662
-0.0624
-0.059
-0.0546
-0.0504
-0.046
-0.0416
-0.0368
-0.0316
-0.0256
-0.0192
-0.0118
-0.0034
0.0054
0.0152
0.0264
0.039
0.053
0.0688
0.0854
0.102
0.1196
0.1372
0.1552
0.1742
0.1942
0.2138
0.233
0.2516
0.2682
0.283
0.2948
0.3044
0.3112
0.3142
0.3136
0.3092
0.3
0.2854
0.2682
0.2478
0.2248
0.2014
0.1778
0.1544
0.1314
0.1094
0.0884
0.07
0.0538
0.0402
0.0284
0.0186
0.0102
0.0024
-0.0046
-0.01
-0.0144
-0.0182
-0.0216
-0.0244
-0.0262
-0.0282
-0.0292
-0.0296
-0.0292
-0.0278
-0.0244
-0.021
-0.0166
-0.0126
-0.0092
-0.0082
-0.0072
-0.0072
-0.0062
-0.0052
-0.0022
0.0006
0.0044
0.0072
0.0096
0.0116
0.0142
0.0162
0.0192
0.0226
0.026
0.0288
0.0318
0.0338
0.0354
0.0368
0.0378
0.0382
0.0386
0.0386
0.0376
0.0356
0.0336
0.0322
0.0306
0.0296
0.0292
0.0282
0.0252
0.0224
0.019
0.016
0.0136
0.0122
0.0106
0.0096
0.0082
0.0068
0.0052
0.0034
0.0016
0.0002
-0.0008
-0.0008
0.0006
0.0024
0.0038
0.0048
0.0048
0.0048
0.0048
0.0052
0.0062
0.0072
0.0072
0.0072
0.0068
0.0058
0.0054
0.0058
0.0058
0.0058
0.0058
0.0052
0.0038
0.0028
0.0022
0.0012
0.0008
0.0008
0.0004
0
0
0.001
0.003
0.006
0.01
0.0164
0.0246
0.0352
0.0474
0.06
0.0712
0.0806
0.0876
0.0944
0.1036
0.1168
0.1328
0.1504
0.167
0.1808
0.19
0.195
0.1954
0.1924
0.1856
0.175
0.1594
0.1398
0.1164
0.0904
0.0644
0.0414
0.023
0.0088
-0.0014
-0.0092
-0.015
-0.02
-0.0238
-0.0268
-0.0302
-0.0338
-0.0372
-0.0406
-0.045
-0.0484
-0.0508
-0.0478
-0.0322
0.0064
0.0776
0.193
0.3576
0.5666
0.7982
1.0088
1.1426
1.1522
1.0208
0.7712
0.4654
0.1776
-0.0342
-0.1484
-0.1772
-0.1546
-0.116
-0.0838
-0.0662
-0.0614
-0.063
-0.0664
-0.0688
-0.0694
-0.0684
-0.0664
-0.0648
-0.0634
-0.0624
-0.0614
-0.0614
-0.061
-0.0606
-0.0606
-0.061
-0.0614
-0.061
-0.061
-0.06
-0.0586
-0.0562
-0.0536
-0.0502
-0.0464
-0.0416
-0.0368
-0.0316
-0.0262
-0.0192
-0.0114
-0.0026
0.0062
0.0156
0.0244
0.0328
0.0416
0.051
0.0612
0.0724
0.085
0.0986
0.1132
0.1288
0.1454
0.163
0.1812
0.2002
0.2198
0.2398
0.2594
0.278
0.2952
0.3104
0.323
0.3332
0.3414
0.3468
0.3482
0.3454
0.3386
0.3268
0.3116
0.2936
0.273
0.2496
0.2248
0.198
0.171
0.1456
0.1222
0.1006
0.083
0.068
0.0538
0.041
0.0304
0.0206
0.0132
0.0078
0.0048
0.0032
0.0026
0.0016
0.0008
-0.0006
-0.0024
-0.0052
-0.0072
-0.0088
-0.0092
-0.0092
-0.0088
-0.0088
-0.0088
-0.0084
-0.00833333333333333
-0.005
