ECG
0.198
0.218
0.2382
0.2576
0.2768
0.295
0.3116
0.3274
0.3412
0.3524
0.3602
0.3646
0.364
0.3596
0.3508
0.3376
0.3204
0.3
0.2766
0.2512
0.2252
0.1998
0.1758
0.1538
0.1338
0.1158
0.0992
0.0846
0.0714
0.0596
0.0498
0.0416
0.0346
0.0288
0.0244
0.0206
0.0172
0.0138
0.0118
0.0104
0.0098
0.0108
0.0128
0.0148
0.0168
0.0174
0.0174
0.0174
0.0174
0.0178
0.0192
0.0206
0.0212
0.0212
0.0202
0.0188
0.0174
0.0158
0.0148
0.0144
0.0148
0.0152
0.0158
0.0158
0.0158
0.0148
0.0128
0.0108
0.0082
0.0052
0.0024
0.0006
0
0
0
-0.0006
-0.0022
-0.005
-0.0078
-0.0098
-0.0102
-0.0096
-0.0092
-0.0092
-0.0096
-0.0112
-0.0128
-0.0138
-0.0144
-0.015
-0.0144
-0.0134
-0.0118
-0.0108
-0.0098
-0.0088
-0.0082
-0.0078
-0.0062
-0.0046
-0.0042
-0.0038
-0.0042
-0.0062
-0.0082
-0.0092
-0.0102
-0.0102
-0.0088
-0.0074
-0.0064
-0.0054
-0.0054
-0.0064
-0.0078
-0.0088
-0.0098
-0.0104
-0.0104
-0.0104
-0.0104
-0.0114
-0.0124
-0.0134
-0.0134
-0.0144
-0.0138
-0.0128
-0.0112
-0.0108
-0.0098
-0.0088
-0.0082
-0.0082
-0.0076
-0.0076
-0.0082
-0.0088
-0.0094
-0.0094
-0.0074
-0.003
0.0048
0.0156
0.0282
0.0408
0.052
0.0614
0.0688
0.0756
0.0836
0.095
0.1092
0.1252
0.1414
0.157
0.1692
0.1774
0.1824
0.1834
0.18
0.1722
0.16
0.1434
0.1234
0.1004
0.0774
0.0554
0.0362
0.0206
0.0084
-0.002
-0.0102
-0.0174
-0.0228
-0.0268
-0.0302
-0.0332
-0.0362
-0.0396
-0.0424
-0.0448
-0.0468
-0.0464
-0.0402
-0.0222
0.0164
0.0852
0.1942
0.35
0.5498
0.7726
0.9758
1.1068
1.121
1.0012
0.7702
0.486
0.2182
0.0184
-0.0934
-0.1276
-0.114
-0.0836
-0.0576
-0.0424
-0.0372
-0.0372
-0.0406
-0.0436
-0.0466
-0.0494
-0.0522
-0.0542
-0.0556
-0.0556
-0.0546
-0.0532
-0.0518
-0.0504
-0.0488
-0.0478
-0.0478
-0.0478
-0.0468
-0.046
-0.0436
-0.0392
-0.0338
-0.0284
-0.023
-0.0176
-0.0132
-0.0088
-0.004
0.002
0.0078
0.0152
0.023
0.0308
0.0396
0.0498
0.0604
0.0722
0.0854
0.099
0.1132
0.1284
0.1454
0.1636
0.1832
0.2038
0.2238
0.2434
0.2618
0.2794
0.295
0.3098
0.3224
0.3332
0.341
0.3458
0.3466
0.3428
0.3346
0.3214
0.3038
0.2828
0.2602
0.2358
0.2108
0.186
0.1622
0.1384
0.1158
0.0954
0.0778
0.0632
0.052
0.0438
0.0374
0.0324
0.028
0.024
0.0206
0.0166
0.0122
0.0068
0.002
-0.0024
-0.0052
-0.007
-0.007
-0.007
-0.0066
-0.0052
-0.0038
-0.0024
-0.001
0.0004
0.0008
0.0018
0.0032
0.0052
0.0072
0.0102
0.0136
0.0162
0.0182
0.0198
0.0198
0.0194
0.0198
0.0202
0.021
0.023
0.0234
0.023
0.022
0.0206
0.0182
0.0172
0.0166
0.0172
0.0178
0.0182
0.0182
0.0178
0.0168
0.0158
0.0154
0.015
0.015
0.0154
0.0158
0.0158
0.0152
0.0136
0.0106
0.0072
0.0038
0.001
-0.0004
-0.0008
-0.0004
0
0.0004
0.0008
0.0008
0.0004
-0.001
-0.003
-0.0058
-0.0078
-0.0092
-0.0088
-0.0082
-0.0072
-0.0066
-0.0062
-0.0062
-0.0058
-0.0048
-0.0038
-0.0038
-0.0042
-0.0052
-0.0078
-0.0104
-0.0124
-0.014
-0.015
-0.0144
-0.0144
-0.0144
-0.0138
-0.0138
-0.0144
-0.0138
-0.0128
-0.0118
-0.0098
-0.0082
-0.0072
-0.0066
-0.0072
-0.0076
-0.0076
-0.0066
-0.0048
-0.0004
0.0058
0.0146
0.0242
0.0346
0.0444
0.0532
0.0614
0.0708
0.082
0.0956
0.1114
0.1266
0.1408
0.1524
0.1612
0.1664
0.1692
0.1682
0.164
0.1548
0.1402
0.1208
0.0974
0.072
0.0476
0.0266
0.01
-0.0018
-0.0106
-0.018
-0.0244
-0.0304
-0.0362
-0.0412
-0.045
-0.0478
-0.0502
-0.0518
-0.0538
-0.0562
-0.0586
-0.058
-0.0502
-0.0266
0.0212
0.1036
0.2286
0.4006
0.611
0.8322
1.0164
1.113
1.0846
0.9264
0.6744
0.393
0.1474
-0.0216
-0.1046
-0.1202
-0.0996
-0.0718
-0.0508
-0.0406
-0.0386
-0.0416
-0.0454
-0.0492
-0.0522
-0.0552
-0.0576
-0.06
-0.0614
-0.0622
-0.0626
-0.0626
-0.0622
-0.0614
-0.06
-0.0576
-0.0552
-0.0522
-0.0496
-0.0476
-0.0462
-0.0438
-0.0404
-0.036
-0.0308
-0.0244
-0.018
-0.0122
-0.006
0.001
0.0074
0.0138
0.0206
0.029
0.0382
0.0488
0.0614
0.0756
0.0902
0.1058
0.123
0.1406
0.1592
0.1792
0.2002
0.2216
0.2436
0.2656
0.2856
0.3042
0.3214
0.336
0.3486
0.36
0.3684
0.3722
0.3714
0.3646
0.3518
0.3342
0.3128
0.2892
0.2642
0.2388
0.2138
0.1898
0.167
0.146
0.1264
0.1084
0.0918
0.077
0.0648
0.0546
0.0468
0.041
0.0362
0.031
0.0262
0.0208
0.0158
0.0108
0.0068
0.0034
0.001
-0.0008
-0.0012
-0.0012
-0.0008
-0.0004
0.0004
0.0014
0.0024
0.0034
0.0048
0.0068
0.0092
0.013
0.0174
0.0208
0.0232
0.0252
0.0262
0.0266
0.0276
0.0292
0.0302
0.0308
0.0314
0.0324
0.0328
0.0342
0.0356
0.037
0.0376
0.0376
0.0356
0.0332
0.0298
0.0264
0.0236
0.0218
0.0204
0.02
0.02
0.0194
0.0184
0.0164
0.0138
0.0108
0.0078
0.0048
0.0028
0.0014
0.0004
0
-0.0004
-0.0014
-0.0028
-0.0042
-0.0052
-0.0058
-0.0052
-0.0042
-0.0032
-0.0026
-0.002
-0.002
-0.0026
-0.0036
-0.0052
-0.0062
-0.0072
-0.0076
-0.0082
-0.0086
-0.0096
-0.0112
-0.0128
-0.0138
-0.0148
-0.0154
-0.0158
-0.0158
-0.0158
-0.0148
-0.0148
-0.0144
-0.0144
-0.0148
-0.0154
-0.0148
-0.0142
-0.0136
-0.0122
-0.0112
-0.0112
-0.0108
-0.0098
-0.0092
-0.0086
-0.0076
-0.006
-0.0036
0.0018
0.01
0.0202
0.0308
0.041
0.0496
0.058
0.0668
0.078
0.0926
0.1088
0.1248
0.14
0.1532
0.163
0.1694
0.1718
0.1708
0.165
0.1544
0.1392
0.1202
0.0976
0.0732
0.0496
0.0282
0.0106
-0.003
-0.0132
-0.0214
-0.0284
-0.0342
-0.039
-0.044
-0.049
-0.0524
-0.0558
-0.0584
-0.0594
-0.0598
-0.0602
-0.0582
-0.0508
-0.0298
0.0146
0.0928
0.2138
0.3818
0.59
0.8108
0.9992
1.1028
1.0842
0.9346
0.6874
0.4042
0.1518
-0.0264
-0.1176
-0.139
-0.121
-0.0928
-0.0704
-0.0588
-0.055
-0.0564
-0.0592
-0.062
-0.0634
-0.0648
-0.0658
-0.0668
-0.0664
-0.0668
-0.0672
-0.0666
-0.0656
-0.0646
-0.0636
-0.0622
-0.0618
-0.061
-0.0596
-0.0572
-0.0542
-0.0512
-0.0478
-0.0444
-0.0406
-0.0362
-0.031
-0.025
-0.0186
-0.0122
-0.006
0.0004
0.0068
0.0136
0.0224
0.0328
0.045
0.059
0.0742
0.0904
0.1074
0.125
0.1426
0.1612
0.1792
0.1968
0.215
0.2336
0.2516
0.2696
0.2866
0.3022
0.3154
0.3256
0.333
0.3366
0.336
0.3312
0.3224
0.3088
0.2912
0.2692
0.2446
0.2184
0.192
0.1666
0.1432
0.1214
0.1012
0.082
0.0648
0.0492
0.0354
0.0238
0.0136
0.0044
-0.0034
-0.0092
-0.0146
-0.0184
-0.0208
-0.0222
-0.0236
-0.025
-0.027
-0.0296
-0.0322
-0.0342
-0.0352
-0.0352
-0.0342
-0.0326
-0.0312
-0.0298
-0.0278
-0.0262
-0.0252
-0.0242
-0.0228
-0.022
-0.0206
-0.0188
-0.0164
-0.0144
-0.0124
-0.012
-0.013
-0.015
-0.0164
-0.0174
-0.0178
-0.0168
-0.0162
-0.0158
-0.0158
-0.0154
-0.0148
-0.0138
-0.0142
-0.0146
-0.015
-0.016
-0.0176
-0.019
-0.0204
-0.0218
-0.0238
-0.0252
-0.0258
-0.0254
-0.025
-0.0236
-0.0222
-0.0216
-0.022
-0.023
-0.0248
-0.0266
-0.0272
-0.0278
-0.0282
-0.0278
-0.0268
-0.0262
-0.0256
-0.0246
-0.0246
-0.0252
-0.0258
-0.0268
-0.0278
-0.0288
-0.0298
-0.0312
-0.0322
-0.0332
-0.0336
-0.035
-0.036
-0.0376
-0.0386
-0.0392
-0.0388
-0.0378
-0.0362
-0.0358
-0.0362
-0.0366
-0.0372
-0.0372
-0.0366
-0.0362
-0.0358
-0.0362
-0.0372
-0.0382
-0.0376
-0.0366
-0.0342
-0.0318
-0.0288
-0.0264
-0.023
-0.018
-0.0106
-0.0014
0.0088
0.0192
0.0284
0.0362
0.043
0.0508
0.0604
0.073
0.0886
0.1052
0.1224
0.1382
0.151
0.1608
0.1672
0.1692
0.1658
0.1574
0.1432
0.1242
0.1012
0.0772
0.0534
0.032
0.0148
0.0016
-0.0086
-0.017
-0.024
-0.0298
-0.0352
-0.0402
-0.044
-0.0478
-0.0508
-0.0528
-0.0538
-0.0554
-0.0564
-0.0558
-0.049
-0.0284
0.0152
0.0918
0.21
0.3756
0.5816
0.8042
0.9962
1.106
1.0928
0.9468
0.6982
0.4116
0.1538
-0.0292
-0.123
-0.144
-0.124
-0.0928
-0.0674
-0.0536
-0.0496
-0.0516
-0.0554
-0.0594
-0.0628
-0.0648
-0.0658
-0.0668
-0.0678
-0.0678
-0.0678
-0.0672
-0.0654
-0.0624
-0.0596
-0.0556
-0.0518
-0.0484
-0.0456
-0.0422
-0.0404
-0.039
-0.0374
-0.0354
-0.0328
-0.0288
-0.0234
-0.017
-0.0096
-0.0024
0.005
0.0128
0.021
0.0298
0.04
0.0512
0.063
0.0752
0.0894
0.1042
0.1192
0.1362
0.1552
0.1746
0.1946
0.2156
0.2352
0.2544
0.272
0.2896
0.3062
0.3224
0.336
0.3482
0.357
0.3614
0.3608
0.356
0.3458
0.331
0.3136
0.2932
0.2706
0.2466
0.2218
0.1958
0.1708
0.1464
0.1244
0.1044
0.0868
0.0716
0.0594
0.0482
0.0384
0.0296
0.0214
0.0136
0.0082
0.0038
0.0014
0.0008
0.0008
0.0004
0.0004
0.0008
0.0008
0.0008
0.0012
0.0022
0.0022
0.0022
0.0032
0.0048
0.0062
0.0088
0.0118
0.0152
0.018
0.021
0.0238
0.0262
0.0282
0.0292
0.0302
0.0308
0.0324
0.0338
0.0364
0.0384
0.0398
0.0392
0.0372
0.0336
0.03
0.0276
0.0262
0.0262
0.0278
0.0284
0.0278
0.0264
0.024
0.0206
0.0186
0.0168
0.0158
0.0148
0.0142
0.0132
0.0126
0.0116
0.0102
0.0092
0.0082
0.0072
0.0066
0.0076
0.0086
0.0092
0.0088
0.0074
0.0044
0.001
-0.0014
-0.0024
-0.0028
-0.0022
-0.0016
-0.0016
-0.002
-0.002
-0.0016
-0.0012
-0.0012
-0.0012
-0.0012
-0.0022
-0.0032
-0.0042
-0.0048
-0.0058
-0.0062
-0.0066
-0.0066
-0.0066
-0.0062
-0.0062
-0.0058
-0.0058
-0.0068
-0.0078
-0.0078
-0.0078
-0.0068
-0.0048
-0.0028
-0.0014
0
0.0024
0.0044
0.0074
0.0118
0.0182
0.025
0.0338
0.0434
0.0526
0.061
0.0688
0.077
0.0858
0.0976
0.1118
0.127
0.1416
0.1558
0.1676
0.1758
0.1806
0.1816
0.1778
0.1694
0.1562
0.1382
0.1168
0.0928
0.068
0.045
0.026
0.0104
-0.0008
-0.0092
-0.0154
-0.0208
-0.0252
-0.0292
-0.0332
-0.0368
-0.0398
-0.0418
-0.0432
-0.0436
-0.0444
-0.043
-0.0352
-0.0146
0.027
0.1006
0.215
0.3742
0.5748
0.795
0.991
1.1106
1.1126
0.9828
0.7464
0.463
0.2008
0.0088
-0.0962
-0.1264
-0.1122
-0.0844
-0.0604
-0.0468
-0.043
-0.045
-0.0484
-0.0524
-0.0548
-0.0558
-0.0558
-0.0554
-0.0544
-0.054
-0.0534
-0.0524
-0.0514
-0.0504
-0.0488
-0.0478
-0.0478
-0.0472
-0.0462
-0.0454
-0.0436
-0.0406
-0.0372
-0.0332
-0.0282
-0.0232
-0.0178
-0.012
-0.0062
-0.0008
0.0056
0.0134
0.0212
0.0304
0.041
0.0526
0.0642
0.0774
0.0912
0.1054
0.1192
0.134
0.1492
0.1652
0.1828
0.2022
0.2216
0.242
0.2626
0.2826
0.3008
0.3174
0.3316
0.3428
0.3512
0.3564
0.3584
0.356
0.3492
0.337
0.3204
0.3004
0.2774
0.253
0.2276
0.2022
0.1772
0.1542
0.1326
0.113
0.0964
0.0818
0.0682
0.0566
0.0474
0.0386
0.0314
0.0256
0.0202
0.0152
0.0114
0.0078
0.0052
0.0036
0.0022
0.0012
0.0008
0.0004
0
0
0
0
0.0004
0.0008
0.0022
0.0042
0.0072
0.0102
0.0132
0.0158
0.0178
0.0192
0.0198
0.0204
0.0204
0.0204
0.0204
0.0208
0.0216
0.0224
0.0238
0.0252
0.0262
0.0262
0.0258
0.0248
0.023
0.021
0.0196
0.0182
0.0162
0.0142
0.0132
0.0122
0.0116
0.0112
0.0112
0.0102
0.0088
0.0074
0.0064
0.0054
0.0044
0.0044
0.0038
0.0032
0.0022
0.0014
-0.0006
-0.002
-0.0034
-0.0044
-0.0054
-0.0058
-0.0062
-0.0066
-0.007
-0.0066
-0.0056
-0.0046
-0.0036
-0.0032
-0.0032
-0.0038
-0.0044
-0.0044
-0.0044
-0.0044
-0.0044
-0.0038
-0.0034
-0.002
0
0.0024
0.0038
0.0048
0.0048
0.0038
0.002
0.0006
-0.0004
-0.0008
-0.0004
0.0004
0.0012
0.0016
0.002
0.002
0.002
0.0026
0.0036
0.0056
0.0096
0.016
0.0248
0.0356
0.0468
0.057
0.0664
0.0752
0.084
0.0958
0.111
0.128
0.145
0.1616
0.1752
0.1854
0.1918
0.1938
0.1908
0.1836
0.1714
0.1542
0.1332
0.1094
0.084
0.0592
0.0372
0.0196
0.0068
-0.0026
-0.0096
-0.0148
-0.0186
-0.0214
-0.0242
-0.0266
-0.0292
-0.0328
-0.0372
-0.0412
-0.045
-0.0474
-0.0448
-0.0316
0.000199999999999999
0.0592
0.1564
0.2984
0.4854
0.7022
0.9142
1.069
1.1194
1.0392
0.838
0.5646
0.2888
0.0676
-0.069
-0.1228
-0.12
-0.0942
-0.068
-0.052
-0.047
-0.0484
-0.0514
-0.0538
-0.0548
-0.0544
-0.0534
-0.0528
-0.0522
-0.0516
-0.0506
-0.0496
-0.0486
-0.0472
-0.0458
-0.0448
-0.044
-0.0436
-0.0432
-0.0422
-0.0402
-0.0382
-0.0352
-0.0322
-0.0292
-0.0254
-0.02
-0.0142
-0.0068
0.001
0.008
0.0148
0.0232
0.0314
0.041
0.0522
0.0634
0.0736
0.0844
0.0962
0.1084
0.1232
0.1412
0.1612
0.1828
0.2058
0.2278
0.2488
0.2694
0.2888
0.3078
0.3262
0.3434
0.3584
0.3712
0.38
0.385
0.3844
0.3792
0.3684
0.3532
0.3342
0.3128
0.2882
0.2628
0.2364
0.21
0.1846
0.1612
0.1398
0.1208
0.1042
0.09
0.0778
0.066
0.0552
0.0454
0.0366
0.0298
0.025
0.0226
0.022
0.022
0.022
0.0224
0.0224
0.0216
0.0206
0.0202
0.0192
0.0188
0.0188
0.0188
0.0182
0.0178
0.0172
0.0166
0.0172
0.0178
0.0182
0.0178
0.0174
0.0168
0.0162
0.0168
0.0182
0.0196
0.021
0.023
0.0238
0.0242
0.0246
0.0246
0.0246
0.0246
0.0246
0.0238
0.023
0.021
0.0192
0.0168
0.0152
0.0132
0.0118
0.0108
0.0108
0.0098
0.0098
0.0098
0.0102
0.0102
0.0112
0.0116
0.012
0.011
0.01
0.0086
0.0062
0.0034
0.0006
-0.0028
-0.0062
-0.0096
-0.0132
-0.0158
-0.0172
-0.0182
-0.0182
-0.0182
-0.019
-0.021
-0.024
-0.027
-0.0294
-0.0304
-0.0304
-0.0284
-0.0268
-0.0252
-0.0242
-0.0236
-0.024
-0.0246
-0.0252
-0.0252
-0.0252
-0.0252
-0.0242
-0.0232
-0.0228
-0.0228
-0.0228
-0.0232
-0.0242
-0.0256
-0.0272
-0.0288
-0.0298
-0.0302
-0.0302
-0.0286
-0.0252
-0.0204
-0.0132
-0.003
0.0086
0.02
0.0302
0.039
0.0468
0.0542
0.0628
0.075
0.0912
0.1084
0.126
0.1422
0.1554
0.1646
0.1698
0.1708
0.1684
0.1616
0.15
0.1344
0.1138
0.0898
0.0644
0.0404
0.0194
0.0042
-0.0066
-0.0138
-0.0196
-0.025
-0.0304
-0.0362
-0.0422
-0.0476
-0.052
-0.0554
-0.0574
-0.0588
-0.0602
-0.0616
-0.059
-0.0468
-0.0176
0.0384
0.1332
0.2742
0.4618
0.6836
0.904
1.07
1.1312
1.059
0.8592
0.5802
0.292
0.0566
-0.0924
-0.1538
-0.1532
-0.1248
-0.095
-0.0754
-0.0676
-0.0686
-0.0726
-0.0766
-0.08
-0.0824
-0.0838
-0.0852
-0.0866
-0.0872
-0.0878
-0.0874
-0.086
-0.0836
-0.0812
-0.0782
-0.0752
-0.0726
-0.0706
-0.069
-0.068
-0.068
-0.0676
-0.0662
-0.0638
-0.0604
-0.0546
-0.0482
-0.0408
-0.0326
-0.0238
-0.016
-0.0078
0.001
0.0098
0.02
0.0312
0.0434
0.055
0.0672
0.0798
0.0936
0.1084
0.125
0.1432
0.1618
0.1812
0.2012
0.2212
0.2412
0.2602
0.2774
0.2924
0.3052
0.315
0.322
0.3254
0.325
0.3196
0.3092
0.2944
0.2758
0.2538
0.2304
0.2056
0.1802
0.1544
0.13
0.107
0.0864
0.068
0.0518
0.0362
0.0216
0.0084
-0.0034
-0.0132
-0.0206
-0.026
-0.0308
-0.0348
-0.0386
-0.042
-0.045
-0.047
-0.0488
-0.0498
-0.0502
-0.0502
-0.0502
-0.0492
-0.0482
-0.0468
-0.0448
-0.0428
-0.0404
-0.0366
-0.0326
-0.0288
-0.0244
-0.021
-0.019
-0.0176
-0.016
-0.0146
-0.0132
-0.0112
-0.0088
-0.0068
-0.0052
-0.0036
-0.0026
-0.002
-0.002
-0.0016
-0.0012
-0.0008
-0.0008
-0.0008
-0.0022
-0.0046
-0.0076
-0.0106
-0.0136
-0.0156
-0.0176
-0.019
-0.0204
-0.0224
-0.0248
-0.0262
-0.0276
-0.0286
-0.029
-0.029
-0.029
-0.03
-0.0316
-0.0336
-0.0352
-0.0372
-0.0382
-0.0386
-0.0396
-0.0414
-0.0424
-0.0438
-0.0448
-0.0448
-0.0444
-0.044
-0.0432
-0.0422
-0.0412
-0.0398
-0.0392
-0.0382
-0.0382
-0.0382
-0.0386
-0.0392
-0.0402
-0.0408
-0.0408
-0.0408
-0.0392
-0.0372
-0.0346
-0.0326
-0.0312
-0.0318
-0.0332
-0.0352
-0.0368
-0.0378
-0.0372
-0.0362
-0.0342
-0.0312
-0.0248
-0.0156
-0.004
0.0082
0.0204
0.0302
0.038
0.0464
0.0562
0.0684
0.084
0.1012
0.1174
0.132
0.1448
0.154
0.1594
0.1608
0.1578
0.149
0.135
0.1164
0.0944
0.0706
0.0476
0.026
0.0074
-0.0068
-0.0176
-0.0264
-0.0332
-0.0386
-0.044
-0.0484
-0.0528
-0.0566
-0.06
-0.0624
-0.0648
-0.0662
-0.0682
-0.0686
-0.0638
-0.0458
-0.0068
0.0644
0.1776
0.3384
0.5406
0.7618
0.9592
1.0784
1.0778
0.9444
0.7046
0.4178
0.153
-0.0408
-0.1462
-0.1764
-0.1616
-0.1322
-0.1078
-0.0946
-0.0922
-0.0962
-0.1016
-0.1064
-0.1094
-0.1104
-0.1094
-0.1084
-0.107
-0.106
-0.1046
-0.1036
-0.1026
-0.1016
-0.0992
-0.0962
-0.0932
-0.0894
-0.0846
-0.0802
-0.0762
-0.0718
-0.0678
-0.0638
-0.0588
-0.0536
-0.0478
-0.042
-0.0356
-0.0298
-0.0234
-0.0166
-0.0088
0
0.0098
0.021
0.0328
0.046
0.059
0.0722
0.086
0.101
0.1176
0.1362
0.1566
0.1776
0.1982
0.2182
0.2382
0.2578
0.2768
0.2954
0.3126
0.3278
0.3396
0.348
0.3518
0.3504
0.3426
0.3298
0.3112
0.2888
0.2638
0.2374
0.21
0.1836
0.1582
0.1338
0.1114
0.0914
0.0734
0.0572
0.0426
0.0294
0.0178
0.007
-0.0018
-0.0088
-0.0138
-0.0178
-0.0208
-0.0236
-0.0254
-0.0278
-0.0302
-0.0316
-0.0326
-0.0332
-0.0326
-0.0322
-0.0318
-0.0314
-0.0308
-0.0304
-0.0288
-0.0268
-0.0244
-0.022
-0.0206
-0.0198
-0.0184
-0.0168
-0.0154
-0.0128
-0.0092
-0.0062
-0.0028
0.0002
0.0026
0.0044
0.0054
0.0054
0.0048
0.004
0.002
